theta,probability
-8.697416795152899,0.79006
-8.391750549928895,0.79006
-8.08608430470489,0.7900590000000001
-7.780418059480886,0.7900590000000001
-7.474751814256882,0.7900590000000001
-7.1690855690328785,0.790058
-6.863419323808874,0.790058
-6.55775307858487,0.790057
-6.252086833360866,0.790057
-5.946420588136862,0.790057
-5.6407543429128575,0.790054
-5.335088097688853,0.790052
-5.02942185246485,0.7900469999999999
-4.723755607240845,0.790031
-4.4180893620168415,0.790004
-4.112423116792837,0.7899700000000001
-3.8067568715688327,0.7899
-3.5010906263448285,0.789804
-3.1954243811208243,0.789624
-2.88975813589682,0.789328
-2.584091890672816,0.788874
-2.2784256454488125,0.788119
-1.9727594002248083,0.787266
-1.6670931550008041,0.786137
-1.3614269097768,0.7847850000000001
-1.0557606645527957,0.783173
-0.7500944193287915,0.781135
-0.44442817410478735,0.778814
-0.13876192888078404,0.775645
0.16690431634322106,0.768529
0.4725705615672244,0.761658
0.7782368067912295,0.754837
1.0839030520152328,0.748019
1.3895692972392362,0.7414229999999999
1.6952355424632413,0.734838
2.0009017876872446,0.7281580000000001
2.3065680329112497,0.721842
2.612234278135253,0.715414
2.917900523359258,0.7090369999999999
3.2235667685832614,0.702628
3.5292330138072665,0.696456
3.83489925903127,0.690338
4.140565504255273,0.684368
4.446231749479278,0.6783049999999999
4.751897994703281,0.6723509999999999
5.057564239927286,0.666431
5.3632304851512895,0.6605719999999999
5.668896730375295,0.6548689999999999
5.974562975599298,0.6493070000000001
6.280229220823301,0.643664
6.585895466047306,0.638128
6.89156171127131,0.6327849999999999
7.197227956495315,0.6274759999999999
7.50289420171932,0.62217
7.808560446943323,0.617031
8.114226692167327,0.6119049999999999
8.41989293739133,0.606901
8.725559182615333,0.6019939999999999
9.03122542783934,0.597057
9.336891673063343,0.592142
9.642557918287347,0.587287
9.94822416351135,0.5825279999999999
10.253890408735357,0.577975
10.55955665395936,0.5733619999999999
10.865222899183363,0.5688759999999999
11.170889144407367,0.5642780000000001
11.47655538963137,0.559986
11.782221634855377,0.5556490000000001
12.08788788007938,0.5513600000000001
12.393554125303384,0.547199
12.699220370527387,0.543221
13.004886615751394,0.539289
13.310552860975397,0.535284
13.6162191061994,0.531392
13.921885351423404,0.527625
14.227551596647407,0.523801
14.533217841871414,0.5202
14.838884087095417,0.5164489999999999
15.14455033231942,0.5128699999999999
15.450216577543424,0.509354
15.75588282276743,0.5060549999999999
16.061549067991436,0.502577
16.36721531321544,0.499329
16.672881558439443,0.49589300000000003
16.978547803663446,0.49258599999999997
17.28421404888745,0.48927200000000004
17.589880294111452,0.486181
17.895546539335456,0.483055
18.20121278455946,0.479974
18.506879029783462,0.476897
18.812545275007473,0.47390600000000005
19.118211520231476,0.471
19.42387776545548,0.46818499999999996
19.729544010679483,0.46530499999999997
20.035210255903486,0.46253500000000003
20.34087650112749,0.459778
20.646542746351493,0.457067
20.952208991575496,0.45430400000000004
21.2578752367995,0.45152499999999995
21.56354148202351,0.448858
21.869207727247513,0.446311
22.174873972471516,0.44371799999999995
22.48054021769552,0.44125800000000004
22.786206462919523,0.43873799999999996
23.091872708143526,0.436168
23.39753895336753,0.433701
23.70320519859154,0.43128500000000003
24.008871443815544,0.42894699999999997
24.314537689039547,0.426511
24.62020393426355,0.424138
24.925870179487553,0.42169500000000004
25.231536424711557,0.419234
25.53720266993556,0.41686
25.842868915159563,0.414504
26.148535160383567,0.412095
26.454201405607577,0.409747
26.75986765083158,0.407339
27.065533896055584,0.405049
27.371200141279587,0.402717
27.67686638650359,0.40037
27.982532631727594,0.39802400000000004
28.288198876951597,0.39554900000000004
28.5938651221756,0.393157
28.899531367399604,0.390834
29.205197612623614,0.38836099999999996
29.510863857847617,0.3859
29.81653010307162,0.38347
30.122196348295624,0.38084399999999996
30.427862593519627,0.37834999999999996
30.73352883874363,0.37578599999999995
31.039195083967634,0.373169
31.344861329191637,0.37048099999999995
31.65052757441564,0.367746
31.95619381963965,0.36490100000000003
32.261860064863654,0.36208700000000005
32.56752631008766,0.35919199999999996
32.87319255531166,0.356186
33.178858800535664,0.353155
33.48452504575967,0.35005200000000003
33.79019129098367,0.346963
34.095857536207674,0.343785
34.40152378143168,0.340434
34.70719002665569,0.337032
35.01285627187969,0.333553
35.318522517103695,0.330095
35.6241887623277,0.326523
35.9298550075517,0.32286800000000004
36.235521252775705,0.319067
36.54118749799971,0.31530899999999995
36.84685374322371,0.311412
37.152519988447715,0.30749800000000005
37.458186233671725,0.30343600000000004
37.76385247889573,0.29938299999999995
38.06951872411973,0.295134
38.375184969343735,0.29090800000000006
38.68085121456774,0.28674200000000005
38.98651745979174,0.28247900000000004
39.292183705015745,0.278261
39.59784995023975,0.27398500000000003
39.90351619546375,0.269605
40.20918244068776,0.26534899999999995
40.514848685911765,0.26110999999999995
40.82051493113577,0.256846
41.12618117635977,0.252599
41.431847421583775,0.24830300000000005
41.73751366680778,0.24409000000000003
42.04317991203178,0.23999700000000002
42.348846157255785,0.23584799999999995
42.65451240247979,0.23177099999999995
42.96017864770379,0.22762800000000005
43.2658448929278,0.22369799999999995
43.571511138151806,0.21986799999999995
43.87717738337581,0.21597900000000003
44.18284362859981,0.21222600000000003
44.488509873823816,0.20848299999999997
44.79417611904782,0.204812
45.09984236427182,0.20137000000000005
45.405508609495826,0.19781000000000004
45.71117485471983,0.19435400000000003
46.01684109994384,0.19104900000000002
46.32250734516784,0.18777200000000005
46.628173590391846,0.18441399999999997
46.93383983561585,0.18118299999999998
47.23950608083985,0.178106
47.545172326063856,0.17512399999999995
47.85083857128786,0.17206999999999995
48.15650481651186,0.16910800000000004
48.462171061735866,0.16612800000000005
48.767837306959876,0.16326200000000002
49.07350355218388,0.160408
49.37916979740788,0.15751400000000004
49.684836042631886,0.15475099999999997
49.99050228785589,0.15208
50.29616853307989,0.149354
50.601834778303896,0.14670099999999997
50.9075010235279,0.144165
51.2131672687519,0.14154199999999995
51.51883351397591,0.13904300000000003
51.82449975919992,0.136505
52.13016600442392,0.13412800000000002
52.43583224964792,0.13179399999999997
52.74149849487193,0.12949999999999995
53.04716474009593,0.12724500000000005
53.35283098531993,0.12500299999999998
53.65849723054394,0.12283
53.96416347576794,0.120676
54.26982972099195,0.11860400000000004
54.575495966215954,0.11663199999999996
54.88116221143996,0.11465099999999995
55.18682845666396,0.11266600000000004
55.492494701887956,0.11073699999999997
55.798160947111974,0.10872000000000004
56.10382719233598,0.10673900000000003
56.40949343755998,0.104858
56.715159682783984,0.10301199999999999
57.02082592800799,0.10126500000000005
57.32649217323199,0.09943400000000002
57.632158418455994,0.09770599999999996
57.93782466368,0.09604400000000002
58.243490908904,0.09436100000000003
58.549157154128004,0.09269400000000005
58.85482339935201,0.09110200000000002
59.16048964457601,0.089499
59.466155889800014,0.08790200000000004
59.77182213502402,0.08639300000000005
60.07748838024802,0.08492999999999995
60.383154625472024,0.08345999999999998
60.68882087069603,0.08204100000000003
60.99448711592003,0.08058799999999999
61.30015336114405,0.07916699999999999
61.60581960636805,0.07777
61.911485851592055,0.07644499999999999
62.21715209681606,0.07507399999999997
62.52281834204006,0.07368799999999998
62.828484587264064,0.07240199999999997
63.13415083248807,0.07119299999999995
63.43981707771207,0.06993099999999997
63.745483322936074,0.06870900000000002
64.05114956816008,0.06748699999999996
64.35681581338409,0.06632000000000005
64.66248205860809,0.06513599999999997
64.9681483038321,0.06399900000000003
65.2738145490561,0.06287600000000004
65.5794807942801,0.061729000000000034
65.8851470395041,0.06065799999999999
66.19081328472811,0.05958300000000005
66.49647952995211,0.05852299999999999
66.80214577517613,0.057532999999999945
67.10781202040013,0.056531
67.41347826562414,0.05552999999999997
67.71914451084814,0.05457000000000001
68.02481075607214,0.05365900000000001
68.33047700129615,0.052722999999999964
68.63614324652015,0.051795000000000035
68.94180949174415,0.050895000000000024
69.24747573696816,0.04996400000000001
69.55314198219216,0.04905999999999999
69.85880822741616,0.048197000000000045
70.16447447264017,0.047320999999999946
70.47014071786417,0.046467999999999954
70.77580696308817,0.04562500000000003
71.08147320831218,0.04478899999999997
71.38713945353618,0.04395099999999996
71.69280569876018,0.043142000000000014
71.99847194398419,0.042377
72.30413818920819,0.04164100000000004
72.6098044344322,0.04086999999999996
72.91547067965621,0.040173000000000014
73.22113692488021,0.03947199999999995
73.52680317010422,0.03876500000000005
73.83246941532822,0.038119000000000014
74.13813566055222,0.037436000000000025
74.44380190577623,0.03677699999999995
74.74946815100023,0.03615299999999999
75.05513439622423,0.03552900000000003
75.36080064144824,0.03492099999999998
75.66646688667224,0.03427199999999997
75.97213313189624,0.03364100000000003
76.27779937712025,0.03305199999999997
76.58346562234425,0.03244800000000003
76.88913186756825,0.031918
77.19479811279226,0.031406000000000045
77.50046435801626,0.030862999999999974
77.80613060324026,0.030303999999999998
78.11179684846428,0.029753999999999947
78.41746309368828,0.029224000000000028
78.72312933891229,0.02872600000000003
79.02879558413629,0.028220000000000023
79.3344618293603,0.027727999999999975
79.6401280745843,0.027209999999999956
79.9457943198083,0.026707000000000036
80.2514605650323,0.026209999999999956
80.5571268102563,0.025724999999999998
80.86279305548031,0.02529400000000004
81.16845930070431,0.024812999999999974
81.47412554592832,0.024390000000000023
81.77979179115232,0.023966000000000043
82.08545803637632,0.023545999999999956
82.39112428160033,0.023087999999999997
82.69679052682433,0.02269500000000002
83.00245677204833,0.022302000000000044
83.30812301727234,0.02190099999999995
83.61378926249635,0.021518999999999955
83.91945550772036,0.02113900000000002
84.22512175294436,0.020765000000000033
84.53078799816836,0.02039599999999997
84.83645424339237,0.020054000000000016
85.14212048861637,0.01968700000000001
85.44778673384037,0.01933700000000005
85.75345297906438,0.01896399999999998
86.05911922428838,0.018616999999999995
86.36478546951238,0.018274000000000012
86.67045171473639,0.017923000000000022
86.97611795996039,0.017604999999999982
87.2817842051844,0.017271999999999954
87.5874504504084,0.016978999999999966
87.8931166956324,0.01665099999999997
88.1987829408564,0.016338999999999992
88.50444918608041,0.01602199999999998
88.81011543130441,0.015722000000000014
89.11578167652843,0.015450999999999993
89.42144792175243,0.015145999999999993
89.72711416697643,0.014877999999999947
90.03278041220044,0.014608999999999983
90.33844665742444,0.01436000000000004
90.64411290264844,0.014100000000000001
90.94977914787245,0.013804000000000038
91.25544539309645,0.013552000000000008
91.56111163832045,0.013276999999999983
91.86677788354446,0.013024999999999953
92.17244412876846,0.012788000000000022
92.47811037399246,0.012526999999999955
92.78377661921647,0.012298000000000031
93.08944286444047,0.012071999999999972
93.39510910966447,0.011870999999999965
93.70077535488848,0.011630999999999947
94.00644160011248,0.011426000000000047
94.31210784533648,0.011198000000000041
94.61777409056049,0.010990000000000055
94.9234403357845,0.010769999999999946
95.22910658100851,0.010584999999999956
95.53477282623251,0.010383999999999949
95.84043907145652,0.010171000000000041
96.14610531668052,0.009982999999999964
96.45177156190452,0.00978699999999999
96.75743780712853,0.009604999999999975
97.06310405235253,0.009436
97.36877029757653,0.009236000000000022
97.67443654280054,0.00904499999999997
97.98010278802454,0.008865000000000012
98.28576903324854,0.008715000000000028
98.59143527847255,0.008530999999999955
98.89710152369655,0.008364000000000038
99.20276776892055,0.008206999999999964
99.50843401414456,0.008067000000000046
99.81410025936856,0.007893000000000039
100.11976650459256,0.007724999999999982
100.42543274981658,0.007580000000000031
100.73109899504058,0.007430999999999965
101.03676524026459,0.007272999999999974
101.34243148548859,0.007120000000000015
101.64809773071259,0.0069669999999999455
101.9537639759366,0.006808000000000036
102.2594302211606,0.0066829999999999945
102.5650964663846,0.0065549999999999775
102.8707627116086,0.006413000000000002
103.17642895683261,0.006294000000000022
103.48209520205661,0.006162000000000001
103.78776144728062,0.00605599999999995
104.09342769250462,0.005948999999999982
104.39909393772862,0.005824999999999969
104.70476018295263,0.00571200000000005
105.01042642817663,0.005623000000000045
105.31609267340063,0.005530000000000035
105.62175891862464,0.005403999999999964
105.92742516384865,0.005310000000000037
106.23309140907266,0.005202999999999958
106.53875765429666,0.005109999999999948
106.84442389952066,0.005014999999999992
107.15009014474467,0.0049160000000000315
107.45575638996867,0.004815000000000014
107.76142263519267,0.004720999999999975
108.06708888041668,0.004620999999999986
108.37275512564068,0.004534999999999956
108.67842137086468,0.0044399999999999995
108.98408761608869,0.004349999999999965
109.28975386131269,0.004268999999999967
109.5954201065367,0.004183000000000048
109.9010863517607,0.0041120000000000045
110.2067525969847,0.0040400000000000436
110.5124188422087,0.0039479999999999515
110.8180850874327,0.003874000000000044
111.12375133265671,0.0038040000000000296
111.42941757788071,0.003727000000000036
111.73508382310473,0.0036519999999999886
112.04075006832873,0.003585999999999978
112.34641631355274,0.003526000000000029
112.65208255877674,0.0034600000000000186
112.95774880400074,0.003399000000000041
113.26341504922475,0.003350999999999993
113.56908129444875,0.003299000000000052
113.87474753967275,0.0032330000000000414
114.18041378489676,0.0031889999999999974
114.48608003012076,0.0031360000000000277
114.79174627534476,0.003078000000000025
115.09741252056877,0.003029999999999977
115.40307876579277,0.002978999999999954
115.70874501101677,0.0029120000000000257
116.01441125624078,0.0028529999999999944
116.32007750146478,0.0028089999999999504
116.62574374668878,0.0027639999999999887
116.93140999191279,0.0027120000000000477
117.2370762371368,0.002666999999999975
117.54274248236081,0.0026129999999999765
117.84840872758481,0.0025610000000000355
118.15407497280881,0.002511000000000041
118.45974121803282,0.002458999999999989
118.76540746325682,0.0024140000000000272
119.07107370848082,0.00237900000000002
119.37673995370483,0.0023320000000000007
119.68240619892882,0.0022959999999999647
119.98807244415283,0.0022560000000000358
120.29373868937685,0.0022299999999999542
120.59940493460084,0.002191000000000054
120.90507117982486,0.0021660000000000013
121.21073742504885,0.0021160000000000068
121.51640367027287,0.0020809999999999995
121.82206991549685,0.0020480000000000498
122.12773616072087,0.002010999999999985
122.43340240594486,0.0019730000000000025
122.73906865116888,0.0019289999999999585
123.04473489639287,0.0018920000000000048
123.35040114161689,0.0018559999999999688
123.65606738684087,0.001823000000000019
123.96173363206489,0.0017859999999999543
124.26739987728888,0.001758999999999955
124.5730661225129,0.0017279999999999518
124.87873236773689,0.00170300000000001
125.1843986129609,0.0016739999999999533
125.49006485818492,0.0016420000000000323
125.79573110340891,0.0016159999999999508
126.10139734863293,0.001583000000000001
126.40706359385692,0.0015519999999999978
126.71272983908094,0.0015249999999999986
127.01839608430492,0.0015100000000000113
127.32406232952894,0.0014690000000000536
127.62972857475293,0.0014370000000000216
127.93539481997695,0.0014119999999999688
128.24106106520094,0.0013809999999999656
128.54672731042496,0.001354999999999995
128.85239355564894,0.0013300000000000534
129.15805980087296,0.0013079999999999758
129.46372604609695,0.0012919999999999598
129.76939229132097,0.0012640000000000429
130.07505853654496,0.0012419999999999654
130.38072478176898,0.0012210000000000276
130.68639102699296,0.0012020000000000364
130.99205727221698,0.0011790000000000411
131.297723517441,0.0011550000000000171
131.603389762665,0.0011370000000000546
131.909056007889,0.0011160000000000059
132.214722253113,0.0010919999999999819
132.520388498337,0.0010740000000000194
132.826054743561,0.0010599999999999499
133.13172098878502,0.001048000000000049
133.437387234009,0.0010299999999999754
133.74305347923303,0.0010160000000000169
134.04871972445702,0.0010010000000000296
134.35438596968103,0.0009869999999999601
134.66005221490502,0.0009719999999999729
134.96571846012904,0.0009479999999999489
135.27138470535303,0.0009379999999999944
135.57705095057705,0.0009069999999999911
135.88271719580104,0.0008899999999999464
136.18838344102505,0.0008679999999999799
136.49404968624904,0.0008550000000000502
136.79971593147306,0.0008350000000000302
137.10538217669708,0.0008110000000000062
137.41104842192107,0.0007909999999999862
137.71671466714508,0.0007740000000000524
138.02238091236907,0.0007639999999999869
138.3280471575931,0.0007549999999999502
138.63371340281708,0.0007420000000000204
138.9393796480411,0.0007310000000000372
139.2450458932651,0.0007179999999999964
139.5507121384891,0.0007059999999999844
139.8563783837131,0.0006979999999999764
140.1620446289371,0.0006869999999999932
140.4677108741611,0.0006770000000000387
140.77337711938512,0.0006669999999999732
141.0790433646091,0.0006620000000000514
141.38470960983312,0.0006559999999999899
141.6903758550571,0.0006429999999999492
141.99604210028113,0.0006329999999999947
142.30170834550515,0.0006220000000000114
142.60737459072914,0.0006089999999999707
142.91304083595315,0.0006000000000000449
143.21870708117714,0.0005950000000000122
143.52437332640116,0.0005889999999999507
143.83003957162515,0
